%# submm counts @ 217 GHz
%# log S [mJy] -- log S^2.5 * dN/dS [Jy^1.5 sr^-1]
%# 
%# --- Unlensed Spheroids --- Lensed Spheroids ---
%# 
      -2.0000000      0.52460279      0.52538821
      -1.8333333      0.83384477      0.83485028
      -1.6666667       1.0882948       1.0897492
      -1.5000000       1.3149630       1.3170597
      -1.3333333       1.4914053       1.4943961
      -1.1666666       1.6468443       1.6510038
     -0.99999997       1.8197841       1.8249709
     -0.83333330       1.9823518       1.9886007
     -0.66666663       2.1113092       2.1190526
     -0.49999996       2.2171775       2.2266556
     -0.33333328       2.3107483       2.3217403
     -0.16666661       2.3878304       2.4000265
  5.9604645e-008       2.4063487       2.4207535
      0.16666673       2.3428502       2.3622152
      0.33333340       2.2807459       2.3052867
      0.50000007       2.1969474       2.2277030
      0.66666675       2.0050740       2.0517770
      0.83333342       1.6722527       1.7616790
       1.0000001       1.1655658       1.3746105
       1.1666668      0.45595627      0.97896847
       1.3333334     -0.49273005      0.66953554
       1.5000001      -1.7340108      0.42771434
       1.6666668      -3.3313264      0.21451303
       1.8333334      -5.3469266     0.022054954
       2.0000001      -7.8135338     -0.16013767
       2.1666668      -10.725481     -0.34623172
       2.3333335      -14.061350     -0.55179938
       2.5000001      -17.820498     -0.80076539
       2.6666668       -Infinity      -1.1220390
       2.8333335       -Infinity      -1.5457768
       3.0000000       -Infinity      -1.3080420
